t	x(t)	y(t)	Theta
0.0	0.0	0.0	0.0
0.01	0.00029800000000000003	0.0075745	2.2529990296717983
0.02	0.001184	0.015296	6.5457504988976325
0.03	0.002646	0.023161499999999998	10.529686625262912
0.04	0.004672	0.031168	14.200296188366792
0.05	0.007250000000000001	0.0393125	17.564278661928313
0.060000000000000005	0.010368000000000002	0.047591999999999995	20.636012157190578
0.07	0.014014	0.0560035	23.434522874065067
0.08	0.018176000000000005	0.064544	25.981136155145407
0.09	0.022841999999999998	0.07321050000000001	28.297798849367098
0.09999999999999999	0.027999999999999997	0.08199999999999999	30.405969176977237
0.10999999999999999	0.033637999999999994	0.09090949999999999	32.32594268176575
0.11999999999999998	0.03974399999999999	0.09993599999999997	34.076490832749016
0.12999999999999998	0.04630599999999998	0.10907649999999997	35.67471124635506
0.13999999999999999	0.053311999999999984	0.11832799999999997	37.13601341767264
0.15	0.06075	0.12768749999999998	38.474185831914156
0.16	0.068608	0.137152	39.701507658444086
0.17	0.07687400000000001	0.1467185	40.82888099552878
0.18000000000000002	0.085536	0.156384	41.865968608306275
0.19000000000000003	0.09458200000000003	0.1661455	42.82132819110876
0.20000000000000004	0.10400000000000004	0.17600000000000005	43.70253819295834
0.21000000000000005	0.11377800000000005	0.1859445	44.51631280683614
0.22000000000000006	0.12390400000000004	0.19597600000000004	45.26860530810097
0.23000000000000007	0.13436600000000007	0.20609150000000004	45.964699867258105
0.24000000000000007	0.1451520000000001	0.21628800000000006	46.6092924853466
0.25000000000000006	0.15625000000000008	0.2265625000000001	47.206561960176145
0.26000000000000006	0.16764800000000007	0.23691200000000012	47.7602318898484
0.2700000000000001	0.17933400000000008	0.2473335000000001	48.27362472247472
0.2800000000000001	0.1912960000000001	0.25782400000000016	48.74970880986558
0.2900000000000001	0.20352200000000012	0.26838050000000013	49.191139344686576
0.3000000000000001	0.21600000000000014	0.27900000000000014	49.600293971352585
0.3100000000000001	0.22871800000000014	0.28967950000000015	49.97930377037966
0.3200000000000001	0.24166400000000016	0.3004160000000002	50.330080229382474
0.3300000000000001	0.25482600000000016	0.31120650000000016	50.654338734224666
0.34000000000000014	0.2681920000000002	0.3220480000000002	50.95361904210182
0.35000000000000014	0.2817500000000002	0.3329375000000002	51.229303134809015
0.36000000000000015	0.29548800000000025	0.3438720000000002	51.4826307947489
0.37000000000000016	0.3093940000000003	0.35484850000000023	51.714713197796925
0.38000000000000017	0.32345600000000024	0.36586400000000024	51.92654477518295
0.3900000000000002	0.3376620000000003	0.3769155000000003	52.119013560331666
0.4000000000000002	0.3520000000000003	0.38800000000000023	52.29291020540279
0.4100000000000002	0.3664580000000003	0.39911450000000026	52.44893582536747
0.4200000000000002	0.3810240000000003	0.41025600000000023	52.587708804274826
0.4300000000000002	0.3956860000000003	0.4214215000000002	52.709770678312395
0.4400000000000002	0.41043200000000035	0.4326080000000003	52.81559119292285
0.45000000000000023	0.42525000000000035	0.4438125000000003	52.905572616107975
0.46000000000000024	0.44012800000000035	0.4550320000000003	52.98005337684231
0.47000000000000025	0.4550540000000004	0.4662635000000004	53.03931108587619
0.48000000000000026	0.4700160000000004	0.4775040000000004	53.083564985831686
0.49000000000000027	0.48500200000000043	0.4887505000000003	53.112977868215864
0.5000000000000002	0.5000000000000003	0.5000000000000002	53.12765748648502
0.5100000000000002	0.5149980000000003	0.5112495000000002	53.12765748648485
0.5200000000000002	0.5299840000000003	0.5224960000000003	53.11297786821558
0.5300000000000002	0.5449460000000004	0.5337365000000004	53.083564985831515
0.5400000000000003	0.5598720000000004	0.5449680000000002	53.03931108587665
0.5500000000000003	0.5747500000000003	0.5561875000000003	52.98005337684219
0.5600000000000003	0.5895680000000004	0.5673920000000003	52.90557261610786
0.5700000000000003	0.6043140000000005	0.5785785000000003	52.81559119292308
0.5800000000000003	0.6189760000000004	0.5897440000000003	52.709770678312395
0.5900000000000003	0.6335420000000005	0.6008855000000004	52.58770880427454
0.6000000000000003	0.6480000000000005	0.6120000000000003	52.448935825367755
0.6100000000000003	0.6623380000000004	0.6230845000000005	52.29291020540211
0.6200000000000003	0.6765440000000005	0.6341360000000003	52.11901356033235
0.6300000000000003	0.6906060000000004	0.6451515000000003	51.92654477518272
0.6400000000000003	0.7045120000000005	0.6561280000000004	51.71471319779704
0.6500000000000004	0.7182500000000005	0.6670625000000003	51.4826307947489
0.6600000000000004	0.7318080000000006	0.6779520000000003	51.22930313480913
0.6700000000000004	0.7451740000000004	0.6887935000000004	50.95361904210142
0.6800000000000004	0.7583360000000005	0.6995840000000004	50.654338734224496
0.6900000000000004	0.7712820000000005	0.7103205000000005	50.330080229382474
0.7000000000000004	0.7840000000000005	0.7210000000000004	49.97930377037983
0.7100000000000004	0.7964780000000005	0.7316195000000004	49.60029397135253
0.7200000000000004	0.8087040000000004	0.7421760000000004	49.191139344686405
0.7300000000000004	0.8206660000000006	0.7526665000000005	48.74970880986581
0.7400000000000004	0.8323520000000005	0.7630880000000004	48.273624722474665
0.7500000000000004	0.8437500000000004	0.7734375000000006	47.76023188984789
0.7600000000000005	0.8548480000000005	0.7837120000000005	47.20656196017654
0.7700000000000005	0.8656340000000006	0.7939085000000005	46.609292485347
0.7800000000000005	0.8760960000000004	0.8040240000000005	45.96469986725748
0.7900000000000005	0.8862220000000005	0.8140555000000005	45.26860530810137
0.8000000000000005	0.8960000000000004	0.8240000000000004	44.5163128068358
0.8100000000000005	0.9054180000000005	0.8338545000000005	43.70253819295863
0.8200000000000005	0.9144640000000005	0.8436160000000006	42.82132819110842
0.8300000000000005	0.9231260000000004	0.8532815000000005	41.8659686083065
0.8400000000000005	0.9313920000000004	0.8628480000000005	40.828880995528664
0.8500000000000005	0.9392500000000005	0.8723125000000005	39.70150765844426
0.8600000000000005	0.9466880000000004	0.8816720000000006	38.4741858319137
0.8700000000000006	0.9536940000000004	0.8909235000000004	37.13601341767287
0.8800000000000006	0.9602560000000003	0.9000640000000005	35.674711246354605
0.8900000000000006	0.9663620000000003	0.9090905000000005	34.0764908327489
0.9000000000000006	0.9720000000000003	0.9180000000000005	32.325942681765866
0.9100000000000006	0.9771580000000003	0.9267895000000006	30.40596917697684
0.9200000000000006	0.9818240000000001	0.9354560000000006	28.297798849366302
0.9300000000000006	0.9859860000000003	0.9439965000000006	25.981136155146146
0.9400000000000006	0.9896320000000002	0.9524080000000005	23.434522874064896
0.9500000000000006	0.9927500000000002	0.9606875000000006	20.63601215719075
0.9600000000000006	0.9953280000000001	0.9688320000000005	17.56427866192763
0.9700000000000006	0.9973540000000001	0.9768385000000006	14.200296188366394
0.9800000000000006	0.9988160000000001	0.9847040000000005	10.529686625263594
0.9900000000000007	0.9997020000000001	0.9924255000000005	6.545750498897178
1.0000000000000007	1.0	1.0000000000000007	2.2529990296710594
